Time,Velocity,Acceleration,Distance
0.0,0.0,0.0,0.0
1.0,0.0,0.0,0.0
2.0,0.0,0.0,0.0
3.0,0.0,0.0,0.0
4.0,0.0,0.0,0.0
5.0,0.0,0.0,0.0
6.0,0.0,0.0,0.0
7.0,0.0,0.0,0.0
8.0,0.0,0.0,0.0
9.0,0.0,0.0,0.0
10.0,0.0,0.0,0.0
11.0,0.0,0.03,0.0
12.0,0.09,0.43,0.04
13.0,1.39,0.76,0.78
14.0,2.55,0.68,2.75
15.0,3.58,0.61,5.81
16.0,4.52,0.56,9.86
17.0,5.36,0.51,14.8
18.0,6.17,0.47,20.56
19.0,6.88,0.4,27.09
20.0,7.47,0.32,34.27
21.0,7.91,0.22,41.95
22.0,8.18,0.15,50.0
23.0,8.4,0.08,58.29
24.0,8.45,-0.06,66.72
25.0,8.23,-0.28,75.06
26.0,7.55,-0.57,82.95
27.0,6.39,-0.85,89.92
28.0,4.83,-1.0,95.53
29.0,3.17,-0.94,99.53
30.0,1.79,-0.99,102.01
31.0,0.0,-0.56,102.91
32.0,0.0,0.0,102.91
33.0,0.0,0.0,102.91
34.0,0.0,0.21,102.91
35.0,0.67,0.56,103.24
36.0,1.79,0.6,104.47
37.0,2.59,0.49,106.66
38.0,3.35,0.47,109.64
39.0,4.11,0.47,113.37
40.0,4.87,0.44,117.86
41.0,5.54,0.42,123.07
42.0,6.21,0.42,128.95
43.0,6.88,0.38,135.5
44.0,7.42,0.29,142.65
45.0,7.82,0.24,150.27
46.0,8.18,0.19,158.27
47.0,8.45,0.17,166.59
48.0,8.72,0.17,175.17
49.0,8.99,0.18,184.02
50.0,9.3,0.21,193.17
51.0,9.66,0.24,202.64
52.0,10.06,0.22,212.5
53.0,10.37,0.19,222.72
54.0,10.68,0.18,233.24
55.0,10.95,0.17,244.06
56.0,11.22,0.13,255.15
57.0,11.35,0.01,266.44
58.0,11.27,-0.17,277.75
59.0,10.82,-0.4,288.79
60.0,9.97,-0.6,299.18
61.0,8.9,-0.69,308.61
62.0,7.73,-0.72,316.93
63.0,6.57,-0.72,324.08
64.0,5.41,-0.72,330.07
65.0,4.25,-0.76,334.9
66.0,2.95,-0.75,338.5
67.0,1.83,-0.92,340.89
68.0,0.0,-0.57,341.81
69.0,0.0,0.0,341.81
70.0,0.0,0.0,341.81
71.0,0.0,0.0,341.81
72.0,0.0,0.0,341.81
73.0,0.0,0.0,341.81
74.0,0.0,0.0,341.81
75.0,0.0,0.0,341.81
76.0,0.0,0.0,341.81
77.0,0.0,0.0,341.81
78.0,0.0,0.0,341.81
79.0,0.0,0.0,341.81
80.0,0.0,0.0,341.81
81.0,0.0,0.0,341.81
82.0,0.0,0.0,341.81
83.0,0.0,0.0,341.81
84.0,0.0,0.0,341.81
85.0,0.0,0.0,341.81
86.0,0.0,0.0,341.81
87.0,0.0,0.0,341.81
88.0,0.0,0.0,341.81
89.0,0.0,0.0,341.81
90.0,0.0,0.0,341.81
91.0,0.0,0.0,341.81
92.0,0.0,0.0,341.81
93.0,0.0,0.0,341.81
94.0,0.0,0.0,341.81
95.0,0.0,0.0,341.81
96.0,0.0,0.0,341.81
97.0,0.0,0.0,341.81
98.0,0.0,0.0,341.81
99.0,0.0,0.0,341.81
100.0,0.0,0.0,341.81
101.0,0.0,0.0,341.81
102.0,0.0,0.0,341.81
103.0,0.0,0.0,341.81
104.0,0.0,0.0,341.81
105.0,0.0,0.0,341.81
106.0,0.0,0.0,341.81
107.0,0.0,0.1,341.81
108.0,0.31,0.15,341.96
109.0,0.49,0.11,342.37
110.0,0.67,0.19,342.95
111.0,1.12,0.28,343.84
112.0,1.56,0.31,345.18
113.0,2.1,0.36,347.01
114.0,2.73,0.43,349.43
115.0,3.49,0.49,352.54
116.0,4.29,0.5,356.42
117.0,5.1,0.49,361.12
118.0,5.86,0.5,366.6
119.0,6.71,0.49,372.88
120.0,7.42,0.47,379.94
121.0,8.23,0.47,387.76
122.0,8.94,0.47,396.35
123.0,9.75,0.47,405.69
124.0,10.46,0.46,415.79
125.0,11.22,0.47,426.63
126.0,11.98,0.47,438.23
127.0,12.74,0.44,450.59
128.0,13.41,0.4,463.67
129.0,14.04,0.35,477.39
130.0,14.53,0.25,491.68
131.0,14.84,0.13,506.36
132.0,14.93,-0.03,521.25
133.0,14.75,-0.14,536.09
134.0,14.48,-0.13,550.71
135.0,14.35,-0.07,565.13
136.0,14.26,-0.03,579.43
137.0,14.26,0.04,593.69
138.0,14.39,0.14,608.02
139.0,14.71,0.21,622.57
140.0,15.07,0.24,637.46
141.0,15.47,0.26,652.72
142.0,15.91,0.28,668.41
143.0,16.36,0.26,684.55
144.0,16.76,0.25,701.12
145.0,17.17,0.25,718.08
146.0,17.57,0.22,735.45
147.0,17.88,0.18,753.17
148.0,18.15,0.15,771.19
149.0,18.37,0.11,789.45
150.0,18.51,0.07,807.89
151.0,18.6,0.06,826.44
152.0,18.69,0.03,845.08
153.0,18.69,0.01,863.77
154.0,18.73,0.01,882.48
155.0,18.73,0.01,901.21
156.0,18.78,0.03,919.96
157.0,18.82,0.03,938.76
158.0,18.87,0.03,957.6
159.0,18.91,0.06,976.49
160.0,19.04,0.1,995.47
161.0,19.22,0.11,1014.6
162.0,19.4,0.1,1033.91
163.0,19.54,0.1,1053.38
164.0,19.71,0.1,1073.01
165.0,19.85,0.06,1092.79
166.0,19.89,0.03,1112.66
167.0,19.94,0.0,1132.58
168.0,19.89,-0.03,1152.49
169.0,19.85,-0.01,1172.36
170.0,19.85,-0.01,1192.21
171.0,19.8,-0.01,1212.04
172.0,19.8,0.0,1231.84
173.0,19.8,-0.01,1251.64
174.0,19.76,-0.03,1271.43
175.0,19.71,-0.03,1291.16
176.0,19.67,-0.03,1310.86
177.0,19.63,-0.03,1330.5
178.0,19.58,-0.03,1350.11
179.0,19.54,-0.04,1369.66
180.0,19.45,-0.04,1389.15
181.0,19.4,-0.06,1408.58
182.0,19.27,-0.07,1427.91
183.0,19.18,-0.06,1447.14
184.0,19.09,-0.06,1466.27
185.0,19.0,-0.06,1485.31
186.0,18.91,-0.04,1504.27
187.0,18.87,-0.01,1523.15
188.0,18.87,0.0,1542.02
189.0,18.87,0.01,1560.88
190.0,18.91,0.03,1579.77
191.0,18.95,0.01,1598.7
192.0,18.95,0.03,1617.66
193.0,19.04,0.06,1636.66
194.0,19.13,0.07,1655.75
195.0,19.27,0.07,1674.95
196.0,19.36,0.04,1694.26
197.0,19.4,0.01,1713.64
198.0,19.4,0.0,1733.04
199.0,19.4,-0.03,1752.44
200.0,19.31,-0.07,1771.8
201.0,19.18,-0.08,1791.04
202.0,19.04,-0.1,1810.15
203.0,18.87,-0.1,1829.11
204.0,18.73,-0.1,1847.91
205.0,18.55,-0.13,1866.55
206.0,18.33,-0.14,1884.99
207.0,18.11,-0.15,1903.21
208.0,17.84,-0.17,1921.18
209.0,17.57,-0.17,1938.88
210.0,17.3,-0.17,1956.31
211.0,17.03,-0.15,1973.48
212.0,16.81,-0.14,1990.4
213.0,16.59,-0.15,2007.1
214.0,16.32,-0.19,2023.55
215.0,15.96,-0.19,2039.69
216.0,15.69,-0.18,2055.51
217.0,15.38,-0.17,2071.05
218.0,15.15,-0.11,2086.31
219.0,15.02,-0.06,2101.4
220.0,14.98,0.0,2116.4
221.0,15.02,0.06,2131.4
222.0,15.15,0.1,2146.48
223.0,15.33,0.13,2161.73
224.0,15.56,0.13,2177.17
225.0,15.74,0.11,2192.82
226.0,15.91,0.11,2208.65
227.0,16.09,0.11,2224.65
228.0,16.27,0.13,2240.83
229.0,16.5,0.14,2257.22
230.0,16.72,0.14,2273.82
231.0,16.94,0.13,2290.66
232.0,17.12,0.11,2307.69
233.0,17.3,0.11,2324.9
234.0,17.48,0.08,2342.29
235.0,17.57,0.06,2359.81
236.0,17.66,0.06,2377.43
237.0,17.75,0.06,2395.13
238.0,17.84,0.04,2412.92
239.0,17.88,0.03,2430.78
240.0,17.93,0.01,2448.68
241.0,17.93,0.0,2466.61
242.0,17.93,-0.01,2484.54
243.0,17.88,-0.04,2502.44
244.0,17.79,-0.03,2520.28
245.0,17.79,0.0,2538.07
246.0,17.79,0.01,2555.86
247.0,17.84,0.04,2573.68
248.0,17.93,0.03,2591.56
249.0,17.93,-0.06,2609.48
250.0,17.75,-0.18,2627.32
251.0,17.35,-0.32,2644.87
252.0,16.72,-0.44,2661.9
253.0,15.91,-0.56,2678.22
254.0,14.93,-0.61,2693.64
255.0,13.95,-0.6,2708.08
256.0,13.01,-0.5,2721.56
257.0,12.34,-0.35,2734.23
258.0,11.89,-0.19,2746.35
259.0,11.71,-0.04,2758.15
260.0,11.76,0.07,2769.88
261.0,11.94,0.17,2781.73
262.0,12.29,0.24,2793.84
263.0,12.7,0.26,2806.34
264.0,13.14,0.28,2819.26
265.0,13.59,0.25,2832.62
266.0,13.95,0.21,2846.39
267.0,14.26,0.18,2860.5
268.0,14.53,0.15,2874.89
269.0,14.75,0.13,2889.53
270.0,14.93,0.11,2904.37
271.0,15.11,0.1,2919.39
272.0,15.24,0.07,2934.57
273.0,15.33,0.03,2949.86
274.0,15.33,-0.06,2965.19
275.0,15.15,-0.14,2980.44
276.0,14.89,-0.18,2995.46
277.0,14.57,-0.21,3010.19
278.0,14.22,-0.26,3024.58
279.0,13.72,-0.31,3038.55
280.0,13.23,-0.29,3052.03
281.0,12.79,-0.25,3065.04
282.0,12.43,-0.19,3077.65
283.0,12.16,-0.19,3089.94
284.0,11.8,-0.19,3101.92
285.0,11.53,-0.15,3113.59
286.0,11.31,-0.13,3125.01
287.0,11.13,-0.11,3136.23
288.0,10.95,-0.1,3147.27
289.0,10.82,-0.07,3158.16
290.0,10.73,-0.06,3168.93
291.0,10.64,-0.06,3179.62
292.0,10.55,-0.04,3190.21
293.0,10.51,-0.03,3200.74
294.0,10.46,-0.03,3211.22
295.0,10.42,-0.01,3221.66
296.0,10.42,-0.01,3232.08
297.0,10.37,-0.03,3242.47
298.0,10.33,-0.03,3252.82
299.0,10.28,-0.04,3263.12
300.0,10.19,-0.07,3273.36
301.0,10.06,-0.1,3283.49
302.0,9.88,-0.11,3293.46
303.0,9.7,-0.14,3303.25
304.0,9.43,-0.18,3312.81
305.0,9.12,-0.22,3322.09
306.0,8.72,-0.26,3331.01
307.0,8.27,-0.26,3339.5
308.0,7.87,-0.26,3347.57
309.0,7.42,-0.26,3355.21
310.0,7.02,-0.24,3362.43
311.0,6.66,-0.19,3369.27
312.0,6.39,-0.15,3375.8
313.0,6.17,-0.1,3382.08
314.0,6.08,-0.06,3388.21
315.0,5.99,-0.03,3394.24
316.0,5.99,0.01,3400.23
317.0,6.04,0.01,3406.24
318.0,6.04,0.0,3412.28
319.0,6.04,-0.01,3418.31
320.0,5.99,-0.03,3424.33
321.0,5.95,-0.04,3430.29
322.0,5.86,-0.06,3436.2
323.0,5.77,-0.03,3442.01
324.0,5.77,-0.01,3447.77
325.0,5.72,0.01,3453.52
326.0,5.81,0.08,3459.28
327.0,5.99,0.11,3465.19
328.0,6.17,0.1,3471.27
329.0,6.3,0.06,3477.5
330.0,6.35,0.04,3483.83
331.0,6.44,0.04,3490.22
332.0,6.48,0.01,3496.68
333.0,6.48,-0.01,3503.16
334.0,6.44,-0.03,3509.62
335.0,6.39,-0.01,3516.04
336.0,6.39,-0.04,3522.43
337.0,6.26,-0.18,3528.75
338.0,5.81,-0.36,3534.79
339.0,5.1,-0.53,3540.24
340.0,4.11,-0.63,3544.85
341.0,3.08,-0.61,3548.45
342.0,2.15,-0.5,3551.06
343.0,1.48,-0.35,3552.87
344.0,1.03,-0.19,3554.12
345.0,0.85,-0.08,3555.06
346.0,0.76,-0.04,3555.87
347.0,0.72,-0.04,3556.61
348.0,0.63,-0.04,3557.28
349.0,0.58,-0.03,3557.88
350.0,0.54,-0.03,3558.44
351.0,0.49,-0.03,3558.95
352.0,0.45,-0.04,3559.42
353.0,0.36,-0.06,3559.82
354.0,0.27,-0.11,3560.14
355.0,0.0,-0.08,3560.27
356.0,0.0,0.0,3560.27
357.0,0.0,0.0,3560.27
358.0,0.0,0.0,3560.27
359.0,0.0,0.0,3560.27
360.0,0.0,0.31,3560.27
361.0,0.98,0.63,3560.76
362.0,2.01,0.61,3562.26
363.0,2.95,0.57,3564.74
364.0,3.84,0.56,3568.14
365.0,4.74,0.54,3572.43
366.0,5.59,0.53,3577.59
367.0,6.44,0.53,3583.61
368.0,7.29,0.49,3590.47
369.0,8.0,0.39,3598.11
370.0,8.54,0.28,3606.38
371.0,8.9,0.17,3615.1
372.0,9.07,0.08,3624.09
373.0,9.16,0.06,3633.21
374.0,9.25,0.07,3642.41
375.0,9.39,0.13,3651.74
376.0,9.66,0.22,3661.26
377.0,10.1,0.29,3671.14
378.0,10.59,0.31,3681.49
379.0,11.09,0.28,3692.33
380.0,11.49,0.19,3703.61
381.0,11.71,0.1,3715.22
382.0,11.8,0.03,3726.97
383.0,11.8,0.0,3738.77
384.0,11.8,0.01,3750.58
385.0,11.85,0.03,3762.4
386.0,11.89,0.04,3774.27
387.0,11.98,0.04,3786.21
388.0,12.03,0.06,3798.21
389.0,12.16,0.08,3810.3
390.0,12.29,0.11,3822.53
391.0,12.52,0.18,3834.93
392.0,12.87,0.26,3847.63
393.0,13.37,0.31,3860.75
394.0,13.86,0.28,3874.36
395.0,14.26,0.21,3888.42
396.0,14.53,0.1,3902.82
397.0,14.57,-0.01,3917.37
398.0,14.48,-0.08,3931.9
399.0,14.31,-0.15,3946.29
400.0,13.99,-0.24,3960.44
401.0,13.55,-0.39,3974.21
402.0,12.74,-0.57,3987.35
403.0,11.71,-0.68,3999.58
404.0,10.55,-0.71,4010.71
405.0,9.43,-0.64,4020.7
406.0,8.49,-0.5,4029.66
407.0,7.82,-0.42,4037.82
408.0,7.15,-0.49,4045.31
409.0,6.26,-0.64,4052.02
410.0,5.1,-0.78,4057.69
411.0,3.76,-0.85,4062.12
412.0,2.37,-0.76,4065.18
413.0,1.3,-0.74,4067.01
414.0,0.0,-0.4,4067.66
415.0,0.0,0.0,4067.66
416.0,0.0,0.0,4067.66
417.0,0.0,0.0,4067.66
418.0,0.0,0.0,4067.66
419.0,0.0,0.0,4067.66
420.0,0.0,0.0,4067.66
421.0,0.0,0.0,4067.66
422.0,0.0,0.0,4067.66
423.0,0.0,0.0,4067.66
424.0,0.0,0.0,4067.66
425.0,0.0,0.0,4067.66
426.0,0.0,0.0,4067.66
427.0,0.0,0.0,4067.66
428.0,0.0,0.0,4067.66
429.0,0.0,0.0,4067.66
430.0,0.0,0.0,4067.66
431.0,0.0,0.0,4067.66
432.0,0.0,0.0,4067.66
433.0,0.0,0.0,4067.66
434.0,0.0,0.0,4067.66
435.0,0.0,0.0,4067.66
436.0,0.0,0.0,4067.66
437.0,0.0,0.0,4067.66
438.0,0.0,0.0,4067.66
439.0,0.0,0.0,4067.66
440.0,0.0,0.0,4067.66
441.0,0.0,0.0,4067.66
442.0,0.0,0.0,4067.66
443.0,0.0,0.0,4067.66
444.0,0.0,0.0,4067.66
445.0,0.0,0.0,4067.66
446.0,0.0,0.0,4067.66
447.0,0.0,0.0,4067.66
448.0,0.0,0.0,4067.66
449.0,0.0,0.0,4067.66
450.0,0.0,0.0,4067.66
451.0,0.0,0.0,4067.66
452.0,0.0,0.0,4067.66
453.0,0.0,0.0,4067.66
454.0,0.0,0.0,4067.66
455.0,0.0,0.0,4067.66
456.0,0.0,0.0,4067.66
457.0,0.0,0.0,4067.66
458.0,0.0,0.0,4067.66
459.0,0.0,0.0,4067.66
460.0,0.0,0.0,4067.66
461.0,0.0,0.0,4067.66
462.0,0.0,0.0,4067.66
463.0,0.0,0.0,4067.66
464.0,0.0,0.0,4067.66
465.0,0.0,0.0,4067.66
466.0,0.0,0.0,4067.66
467.0,0.0,0.0,4067.66
468.0,0.0,0.0,4067.66
469.0,0.0,0.0,4067.66
470.0,0.0,0.0,4067.66
471.0,0.0,0.0,4067.66
472.0,0.0,0.0,4067.66
473.0,0.0,0.0,4067.66
474.0,0.0,0.0,4067.66
475.0,0.0,0.0,4067.66
476.0,0.0,0.0,4067.66
477.0,0.0,0.0,4067.66
478.0,0.0,0.0,4067.66
479.0,0.0,0.0,4067.66
480.0,0.0,0.22,4067.66
481.0,0.72,0.43,4068.02
482.0,1.39,0.4,4069.07
483.0,2.01,0.42,4070.77
484.0,2.73,0.43,4073.14
485.0,3.4,0.46,4076.2
486.0,4.2,0.51,4080.0
487.0,5.05,0.54,4084.63
488.0,5.95,0.51,4090.13
489.0,6.71,0.5,4096.45
490.0,7.55,0.49,4103.58
491.0,8.27,0.44,4111.49
492.0,8.99,0.44,4120.12
493.0,9.7,0.43,4129.46
494.0,10.37,0.4,4139.5
495.0,11.0,0.36,4150.19
496.0,11.53,0.4,4161.45
497.0,12.29,0.43,4173.36
498.0,12.92,0.42,4185.97
499.0,13.63,0.44,4199.25
500.0,14.35,0.46,4213.24
501.0,15.11,0.44,4227.97
502.0,15.78,0.42,4243.42
503.0,16.45,0.42,4259.53
504.0,17.12,0.39,4276.32
505.0,17.7,0.32,4293.73
506.0,18.15,0.24,4311.66
507.0,18.46,0.19,4329.96
508.0,18.78,0.17,4348.58
509.0,19.0,0.17,4367.47
510.0,19.31,0.22,4386.62
511.0,19.71,0.22,4406.14
512.0,20.03,0.17,4426.01
513.0,20.25,0.1,4446.15
514.0,20.34,0.03,4466.44
515.0,20.34,-0.04,4486.78
516.0,20.21,-0.11,4507.06
517.0,19.98,-0.14,4527.15
518.0,19.76,-0.15,4547.02
519.0,19.49,-0.15,4566.65
520.0,19.27,-0.11,4586.03
521.0,19.13,-0.06,4605.23
522.0,19.09,0.0,4624.34
523.0,19.13,0.08,4643.45
524.0,19.36,0.15,4662.69
525.0,19.63,0.18,4682.19
526.0,19.94,0.21,4701.97
527.0,20.3,0.24,4722.08
528.0,20.7,0.25,4742.58
529.0,21.1,0.21,4763.48
530.0,21.37,0.14,4784.71
531.0,21.55,0.1,4806.17
532.0,21.68,0.07,4827.79
533.0,21.77,0.06,4849.51
534.0,21.86,0.06,4871.33
535.0,21.95,0.03,4893.23
536.0,21.95,-0.01,4915.18
537.0,21.9,-0.04,4937.11
538.0,21.82,-0.06,4958.97
539.0,21.73,-0.04,4980.74
540.0,21.68,0.0,5002.44
541.0,21.73,0.03,5024.15
542.0,21.77,0.0,5045.9
543.0,21.73,-0.07,5067.65
544.0,21.55,-0.15,5089.28
545.0,21.23,-0.21,5110.67
546.0,20.88,-0.25,5131.73
547.0,20.43,-0.29,5152.38
548.0,19.94,-0.39,5172.57
549.0,19.18,-0.53,5192.12
550.0,18.24,-0.65,5210.83
551.0,17.08,-0.76,5228.49
552.0,15.78,-0.89,5244.92
553.0,14.22,-0.92,5259.92
554.0,12.83,-0.83,5273.44
555.0,11.53,-0.81,5285.62
556.0,10.24,-0.78,5296.51
557.0,9.03,-0.71,5306.14
558.0,7.96,-0.65,5314.64
559.0,6.93,-0.63,5322.08
560.0,5.95,-0.58,5328.52
561.0,5.05,-0.56,5334.01
562.0,4.16,-0.54,5338.62
563.0,3.31,-0.53,5342.35
564.0,2.46,-0.51,5345.23
565.0,1.65,-0.46,5347.29
566.0,0.98,-0.51,5348.61
567.0,0.0,-0.31,5349.1
568.0,0.0,0.0,5349.1
569.0,0.0,0.0,5349.1
570.0,0.0,0.0,5349.1
571.0,0.0,0.0,5349.1
572.0,0.0,0.0,5349.1
573.0,0.0,0.0,5349.1
574.0,0.0,0.0,5349.1
575.0,0.0,0.0,5349.1
576.0,0.0,0.0,5349.1
577.0,0.0,0.0,5349.1
578.0,0.0,0.0,5349.1
579.0,0.0,0.0,5349.1
580.0,0.0,0.0,5349.1
581.0,0.0,0.0,5349.1
582.0,0.0,0.0,5349.1
583.0,0.0,0.0,5349.1
584.0,0.0,0.0,5349.1
585.0,0.0,0.0,5349.1
586.0,0.0,0.0,5349.1
587.0,0.0,0.0,5349.1
588.0,0.0,0.0,5349.1
589.0,0.0,0.0,5349.1
590.0,0.0,0.0,5349.1
591.0,0.0,0.0,5349.1
592.0,0.0,0.0,5349.1
593.0,0.0,0.0,5349.1
594.0,0.0,0.0,5349.1
595.0,0.0,0.0,5349.1
596.0,0.0,0.0,5349.1
597.0,0.0,0.0,5349.1
598.0,0.0,0.0,5349.1
599.0,0.0,0.08,5349.1
600.0,0.27,0.26,5349.24
601.0,0.85,0.29,5349.79
602.0,1.21,0.46,5350.82
603.0,2.32,0.6,5352.59
604.0,3.13,0.58,5355.32
605.0,4.2,0.63,5358.98
606.0,5.14,0.61,5363.65
607.0,6.17,0.61,5369.31
608.0,7.11,0.6,5375.95
609.0,8.09,0.56,5383.55
610.0,8.9,0.51,5392.04
611.0,9.75,0.49,5401.36
612.0,10.46,0.4,5411.46
613.0,11.04,0.33,5422.22
614.0,11.53,0.28,5433.5
615.0,11.94,0.19,5445.24
616.0,12.16,0.14,5457.29
617.0,12.38,0.13,5469.56
618.0,12.56,0.1,5482.03
619.0,12.7,0.08,5494.66
620.0,12.83,0.08,5507.42
621.0,12.96,0.07,5520.32
622.0,13.05,0.06,5533.33
623.0,13.14,0.03,5546.43
624.0,13.14,-0.01,5559.57
625.0,13.1,-0.07,5572.69
626.0,12.92,-0.11,5585.7
627.0,12.74,-0.11,5598.53
628.0,12.56,-0.13,5611.18
629.0,12.34,-0.17,5623.63
630.0,12.03,-0.22,5635.81
631.0,11.62,-0.32,5647.64
632.0,11.0,-0.44,5658.95
633.0,10.19,-0.5,5669.54
634.0,9.39,-0.46,5679.33
635.0,8.72,-0.33,5688.38
636.0,8.31,-0.15,5696.9
637.0,8.23,0.06,5705.17
638.0,8.49,0.24,5713.53
639.0,8.99,0.35,5722.27
640.0,9.61,0.42,5731.57
641.0,10.33,0.47,5741.54
642.0,11.13,0.46,5752.26
643.0,11.8,0.42,5763.73
644.0,12.47,0.39,5775.87
645.0,13.05,0.36,5788.63
646.0,13.63,0.33,5801.98
647.0,14.13,0.32,5815.86
648.0,14.66,0.32,5830.25
649.0,15.15,0.33,5845.16
650.0,15.74,0.33,5860.6
651.0,16.23,0.32,5876.59
652.0,16.76,0.31,5893.08
653.0,17.21,0.31,5910.07
654.0,17.75,0.32,5927.55
655.0,18.24,0.28,5945.54
656.0,18.64,0.24,5963.98
657.0,19.0,0.21,5982.8
658.0,19.31,0.17,6001.96
659.0,19.54,0.13,6021.38
660.0,19.71,0.1,6041.01
661.0,19.85,0.1,6060.79
662.0,20.03,0.1,6080.73
663.0,20.16,0.11,6100.82
664.0,20.39,0.13,6121.1
665.0,20.56,0.13,6141.57
666.0,20.79,0.14,6162.25
667.0,21.01,0.14,6183.14
668.0,21.23,0.14,6204.27
669.0,21.46,0.15,6225.61
670.0,21.73,0.15,6247.21
671.0,21.95,0.15,6269.04
672.0,22.22,0.17,6291.13
673.0,22.49,0.15,6313.48
674.0,22.71,0.13,6336.08
675.0,22.89,0.14,6358.88
676.0,23.16,0.15,6381.9
677.0,23.38,0.15,6405.17
678.0,23.65,0.15,6428.68
679.0,23.87,0.15,6452.44
680.0,24.14,0.15,6476.45
681.0,24.36,0.14,6500.7
682.0,24.59,0.15,6525.17
683.0,24.86,0.17,6549.9
684.0,25.12,0.15,6574.89
685.0,25.35,0.15,6600.12
686.0,25.62,0.17,6625.6
687.0,25.88,0.15,6651.35
688.0,26.11,0.13,6677.35
689.0,26.29,0.07,6703.54
690.0,26.33,-0.06,6729.85
691.0,26.11,-0.11,6756.07
692.0,25.97,-0.11,6782.11
693.0,25.75,-0.17,6807.97
694.0,25.44,-0.18,6833.57
695.0,25.17,-0.17,6858.87
696.0,24.9,-0.15,6883.9
697.0,24.68,-0.11,6908.69
698.0,24.54,-0.08,6933.3
699.0,24.41,-0.07,6957.78
700.0,24.32,-0.03,6982.14
701.0,24.32,0.0,7006.46
702.0,24.32,-0.01,7030.78
703.0,24.27,-0.03,7055.07
704.0,24.23,-0.06,7079.33
705.0,24.1,-0.1,7103.49
706.0,23.92,-0.11,7127.49
707.0,23.74,-0.13,7151.32
708.0,23.51,-0.14,7174.95
709.0,23.29,-0.13,7198.35
710.0,23.11,-0.07,7221.55
711.0,23.07,-0.03,7244.64
712.0,23.02,0.01,7267.69
713.0,23.11,0.07,7290.75
714.0,23.25,0.08,7313.93
715.0,23.38,0.1,7337.25
716.0,23.56,0.08,7360.71
717.0,23.65,0.06,7384.32
718.0,23.74,0.06,7408.01
719.0,23.83,0.03,7431.79
720.0,23.83,0.0,7455.62
721.0,23.83,0.0,7479.45
722.0,23.83,0.01,7503.28
723.0,23.87,0.03,7527.13
724.0,23.92,0.06,7551.02
725.0,24.05,0.11,7575.0
726.0,24.27,0.14,7599.17
727.0,24.5,0.17,7623.55
728.0,24.81,0.21,7648.21
729.0,25.17,0.22,7673.2
730.0,25.53,0.22,7698.54
731.0,25.88,0.24,7724.25
732.0,26.29,0.24,7750.33
733.0,26.64,0.22,7776.8
734.0,27.0,0.21,7803.62
735.0,27.31,0.15,7830.78
736.0,27.49,0.08,7858.18
737.0,27.58,0.04,7885.72
738.0,27.63,0.01,7913.32
739.0,27.63,-0.03,7940.95
740.0,27.54,-0.08,7968.53
741.0,27.36,-0.11,7995.98
742.0,27.18,-0.11,8023.25
743.0,27.0,-0.14,8050.34
744.0,26.73,-0.14,8077.21
745.0,26.55,-0.13,8103.85
746.0,26.33,-0.13,8130.29
747.0,26.15,-0.11,8156.54
748.0,25.97,-0.08,8182.6
749.0,25.88,-0.06,8208.53
750.0,25.79,-0.06,8234.37
751.0,25.7,-0.06,8260.11
752.0,25.62,-0.07,8285.77
753.0,25.48,-0.08,8311.32
754.0,25.35,-0.08,8336.74
755.0,25.21,-0.04,8362.02
756.0,25.21,0.03,8387.23
757.0,25.3,0.07,8412.49
758.0,25.44,0.11,8437.86
759.0,25.66,0.17,8463.41
760.0,25.97,0.21,8489.22
761.0,26.33,0.24,8515.37
762.0,26.73,0.24,8541.91
763.0,27.09,0.22,8568.82
764.0,27.45,0.22,8596.09
765.0,27.81,0.22,8623.71
766.0,28.16,0.21,8651.7
767.0,28.48,0.17,8680.02
768.0,28.7,0.1,8708.61
769.0,28.79,0.03,8737.35
770.0,28.79,-0.06,8766.14
771.0,28.61,-0.13,8794.84
772.0,28.39,-0.15,8823.34
773.0,28.12,-0.17,8851.59
774.0,27.85,-0.15,8879.58
775.0,27.63,-0.11,8907.32
776.0,27.49,-0.07,8934.88
777.0,27.4,-0.03,8962.32
778.0,27.4,-0.01,8989.73
779.0,27.36,-0.06,9017.11
780.0,27.22,-0.11,9044.4
781.0,27.0,-0.17,9071.51
782.0,26.69,-0.19,9098.36
783.0,26.38,-0.21,9124.89
784.0,26.02,-0.25,9151.09
785.0,25.57,-0.28,9176.88
786.0,25.12,-0.26,9202.23
787.0,24.72,-0.25,9227.15
788.0,24.32,-0.25,9251.67
789.0,23.92,-0.26,9275.79
790.0,23.47,-0.29,9299.48
791.0,22.98,-0.29,9322.71
792.0,22.53,-0.28,9345.46
793.0,22.08,-0.26,9367.77
794.0,21.68,-0.26,9389.65
795.0,21.23,-0.28,9411.11
796.0,20.79,-0.28,9432.12
797.0,20.34,-0.31,9452.68
798.0,19.8,-0.32,9472.76
799.0,19.31,-0.32,9492.31
800.0,18.78,-0.35,9511.36
801.0,18.19,-0.33,9529.84
802.0,17.7,-0.29,9547.79
803.0,17.26,-0.25,9565.27
804.0,16.9,-0.17,9582.35
805.0,16.72,-0.1,9599.16
806.0,16.59,-0.07,9615.81
807.0,16.5,-0.01,9632.35
808.0,16.54,0.07,9648.87
809.0,16.72,0.11,9665.5
810.0,16.9,0.11,9682.31
811.0,17.08,0.11,9699.29
812.0,17.26,0.11,9716.46
813.0,17.43,0.13,9733.8
814.0,17.66,0.15,9751.35
815.0,17.93,0.15,9769.14
816.0,18.15,0.15,9787.18
817.0,18.42,0.18,9805.46
818.0,18.73,0.19,9824.04
819.0,19.04,0.21,9842.93
820.0,19.4,0.22,9862.15
821.0,19.76,0.22,9881.73
822.0,20.12,0.22,9901.67
823.0,20.47,0.25,9921.96
824.0,20.92,0.26,9942.66
825.0,21.32,0.26,9963.78
826.0,21.77,0.28,9985.33
827.0,22.22,0.28,10007.33
828.0,22.66,0.26,10029.77
829.0,23.07,0.25,10052.63
830.0,23.47,0.25,10075.9
831.0,23.87,0.24,10099.57
832.0,24.23,0.21,10123.62
833.0,24.54,0.17,10148.01
